#  Sbc SED of Coleman, Wu, and Weedman (1980)
#  Extended below 1400 A and beyond 10000 A by
#  Bolzonella, Miralles, and Pello (2000) using evolutionary models
#  of Bruzual and Charlot (1993)
#
#  Obtained from ZPHOT code at
#  'http://webast.ast.obs-mip.fr/hyperz/zphot_src_1.1.tar.gz'
#
#  Truncated to wavelengths less than 22050 Angstroms, and thinned by
#  galsim.utilities.thin_tabulated_values to a relative error of 1.e-3
#  with fast_search=False.  See devel/modules/getSEDs.py for details.
#
#  Angstroms     Flux/A
#
      91.00       0.77622
     264.00      27.43038
     318.00      32.60641
     348.00      32.44732
     375.00      61.26883
     395.00      71.99828
     405.00      87.98145
     441.00      85.83556
     490.00      71.07333
     500.00      86.72352
     512.00     123.20360
     530.00     105.77750
     540.00      87.01950
     570.00     120.57680
     580.00     115.58200
     610.00      94.38213
     630.00     109.25530
     665.00     113.32510
     695.00     114.36110
     705.00      90.01635
     726.00     114.84210
     755.00     107.18350
     765.00      95.82505
     815.00     101.81870
     835.00      79.39790
     845.00      98.00793
     855.00      95.49207
     895.00      96.30602
     915.00      95.89905
     935.00     405.49900
     945.00     578.65010
     955.00     694.82410
     965.00     754.39100
     975.00     228.46320
     985.00     584.56980
     995.00     575.69020
    1005.00     757.72080
    1015.00     754.76100
    1025.00     452.11660
    1035.00     603.80880
    1045.00     915.33260
    1055.00     875.00480
    1065.00     709.99330
    1075.00     797.67880
    1085.00     667.44550
    1095.00     810.99800
    1115.00     738.48190
    1125.00     645.24660
    1135.00     785.83940
    1145.00     722.20270
    1155.00     737.74190
    1165.00     735.52200
    1175.00     491.33460
    1185.00     693.34420
    1195.00     538.69210
    1215.00     325.58320
    1235.00     675.95500
    1245.00     712.58310
    1265.00     616.01820
    1275.00     734.78200
    1285.00     753.28110
    1295.00     616.38810
    1305.00     608.98850
    1315.00     722.94260
    1325.00     685.94450
    1335.00     620.45790
    1345.00     699.26390
    1355.00     673.73520
    1365.00     607.87860
    1375.00     620.45790
    1385.00     616.38810
    1395.00     497.25430
    1405.00     501.69410
    1415.00     560.89110
    1425.00     557.56120
    1447.00     584.19980
    1465.00     520.19310
    1475.00     518.71320
    1495.00     522.78300
    1505.00     491.70460
    1512.00     441.38720
    1525.00     452.11660
    1535.00     388.10990
    1565.00     396.98950
    1585.00     435.46750
    1595.00     439.16730
    1625.00     403.64910
    1635.00     424.73800
    1655.00     401.05930
    1665.00     425.84800
    1672.00     382.56020
    1685.00     438.42730
    1705.00     395.13960
    1715.00     372.57070
    1735.00     387.00000
    1755.00     393.28970
    1765.00     365.43010
    1775.00     365.61510
    1785.00     371.09080
    1800.00     387.00000
    1900.00     390.00000
    2000.00     379.00000
    2100.00     364.00000
    2200.00     353.00000
    2300.00     349.00000
    2500.00     346.00000
    2800.00     348.00000
    2900.00     353.00000
    3060.00     374.00000
    3180.00     403.00000
    3260.00     432.00000
    3340.00     469.00000
    3500.00     558.00000
    3540.00     597.00000
    3580.00     577.00000
    3620.00     563.00000
    3660.00     599.00000
    3700.00     676.00000
    3740.00     706.00000
    3780.00     682.00000
    3820.00     708.00000
    3860.00     764.00000
    3900.00     778.00000
    3940.00     760.00000
    3980.00     813.00000
    4020.00     920.00000
    4060.00     924.00000
    4100.00     880.00000
    4140.00     903.00000
    4180.00     938.00000
    4220.00     947.00000
    4260.00     927.00000
    4300.00     896.00000
    4340.00     896.00000
    4420.00     969.00000
    4500.00    1017.00000
    4540.00    1016.00000
    4580.00    1005.00000
    4620.00    1013.00000
    4700.00     994.00000
    4740.00    1013.00000
    4780.00    1006.00000
    4820.00     984.00000
    4860.00     980.00000
    4900.00     967.00000
    4940.00     966.00000
    4980.00     984.00000
    5020.00     977.00000
    5060.00     942.00000
    5100.00     945.00000
    5180.00     917.00000
    5220.00     928.00000
    5260.00     920.00000
    5340.00     886.00000
    5380.00     990.00000
    5420.00     941.00000
    5460.00     961.00000
    5500.00     945.00000
    5540.00     961.00000
    5620.00     945.00000
    5780.00     910.00000
    5940.00     886.00000
    6060.00     878.00000
    6500.00     855.00000
    7020.00     832.00000
    7060.00     830.00000
    7180.00     826.00000
    7580.00     812.00000
    7620.00     811.00000
    7660.00     809.00000
    7700.00     807.00000
    7740.00     807.00000
    8100.00     794.00000
    8500.00     783.00000
    9100.00     769.00000
    9500.00     761.00000
    9800.00     756.00000
   10000.00     753.00000
   10075.00     738.48250
   10125.00     749.12300
   10175.00     739.81260
   10225.00     741.14270
   10275.00     741.73380
   10325.00     730.94550
   10425.00     726.36410
   10475.00     715.72360
   10575.00     697.39830
   10675.00     682.02860
   10725.00     684.39320
   10775.00     678.03840
   10825.00     667.10230
   10925.00     656.75730
   11075.00     637.24970
   11125.00     634.44180
   11225.00     627.93920
   11275.00     619.51550
   11325.00     617.74210
   11425.00     606.51040
   11475.00     612.12620
   11525.00     609.31830
   11625.00     592.47080
   11675.00     590.99290
   11725.00     592.91420
   11825.00     574.58880
   11875.00     565.27830
   11925.00     572.81540
   11975.00     553.89890
   12025.00     563.20930
   12125.00     556.55900
   12225.00     552.42100
   12325.00     543.70170
   12525.00     526.85410
   12575.00     524.34180
   12725.00     515.32700
   12775.00     514.29240
   12825.00     494.78480
   12875.00     504.09520
   12925.00     498.18380
   12975.00     502.46960
   13025.00     495.37590
   13075.00     496.26260
   13125.00     486.50880
   13175.00     484.14420
   13275.00     475.12940
   13325.00     476.16380
   13525.00     464.19320
   13575.00     456.21290
   13675.00     455.91730
   13825.00     455.32610
   13875.00     450.44920
   13925.00     430.20270
   13975.00     427.83810
   14025.00     422.37000
   14075.00     425.32570
   14125.00     420.15330
   14175.00     423.55230
   14225.00     417.93650
   14275.00     412.17290
   14325.00     419.85770
   14375.00     421.18780
   14425.00     410.99060
   14475.00     418.82320
   14525.00     414.09410
   14570.00     416.45860
   14620.00     406.55700
   14725.00     400.20230
   14775.00     402.71460
   14825.00     404.04470
   14875.00     400.64560
   14925.00     409.51280
   15075.00     401.08900
   15125.00     407.59150
   15325.00     408.47820
   15525.00     402.27120
   15575.00     388.82280
   15625.00     391.92630
   15675.00     390.30070
   15725.00     399.31560
   15775.00     374.04430
   15825.00     373.30540
   15875.00     372.56640
   15925.00     385.12820
   15975.00     376.40890
   16050.00     373.89650
   16150.00     379.95570
   16250.00     367.54170
   16350.00     380.99020
   16450.00     360.74360
   16550.00     373.45310
   16650.00     361.18700
   16750.00     362.66480
   16850.00     353.50210
   16950.00     356.45790
   17050.00     349.21640
   17150.00     344.63500
   17250.00     338.42810
   17350.00     327.19640
   17450.00     325.57080
   17550.00     319.21600
   17650.00     313.89570
   17750.00     305.91530
   17950.00     295.12700
   18150.00     282.56520
   18350.00     274.43710
   18550.00     266.45670
   18650.00     259.51080
   18750.00     253.74710
   18850.00     252.41710
   18950.00     243.55000
   19050.00     245.76680
   19350.00     230.84050
   19450.00     225.22460
   19650.00     220.05210
   19750.00     214.43630
   19950.00     209.41160
   20050.00     208.22930
   20250.00     200.39670
   20550.00     194.48530
   20650.00     191.52960
   20750.00     189.60840
   20950.00     183.69700
   21150.00     180.00230
   21450.00     173.79540
   21850.00     163.89380
   22050.00     158.27790
