#  Scd SED of Coleman, Wu, and Weedman (1980)
#  Extended below 1400 A and beyond 10000 A by
#  Bolzonella, Miralles, and Pello (2000) using evolutionary models
#  of Bruzual and Charlot (1993)
#
#  Obtained from ZPHOT code at
#  'http://webast.ast.obs-mip.fr/hyperz/zphot_src_1.1.tar.gz'
#
#  Truncated to wavelengths less than 22050 Angstroms, and thinned by
#  galsim.utilities.thin_tabulated_values to a relative error of 1.e-5
#  with fast_search=False.  See devel/modules/getSEDs.py for details.
#
#  Angstroms     Flux/A
#
      91.00       1.86857
     114.00       7.49430
     159.00      25.45436
     191.00      35.83878
     202.00      38.28475
     216.00      40.58684
     252.00      44.63427
     257.00      46.87380
     260.00      46.27951
     264.00      56.90791
     269.00      59.59785
     274.00      61.76231
     279.00      54.44942
     284.00      65.12161
     290.00      70.50150
     301.00      63.49514
     308.00      69.62570
     318.00      68.43712
     328.00      72.37820
     348.00      68.06178
     357.00      92.70915
     366.00     143.38010
     375.00     140.44000
     385.00     112.78990
     395.00     167.58960
     405.00     207.81360
     414.00     205.06110
     422.00     184.85530
     430.00     175.78460
     441.00     203.24700
     451.00     205.49900
     460.00     178.84990
     470.00     180.60140
     480.00     201.87070
     490.00     167.52710
     500.00     207.00040
     506.00     172.96950
     512.00     298.95890
     520.00     281.56810
     530.00     255.73210
     540.00     209.00220
     550.00     204.06020
     560.00     264.92800
     570.00     293.89180
     580.00     281.56810
     590.00     284.00780
     600.00     232.14820
     610.00     229.20810
     620.00     286.00960
     630.00     266.99240
     640.00     287.94890
     650.00     274.12380
     658.00     248.28790
     665.00     277.87730
     675.00     289.26260
     685.00     241.34410
     695.00     281.00510
     705.00     220.13730
     716.00     284.32060
     735.00     280.88000
     745.00     268.74400
     755.00     264.11470
     765.00     235.77650
     775.00     259.29790
     785.00     237.65320
     795.00     251.91620
     805.00     253.35500
     815.00     251.41570
     825.00     253.60520
     835.00     195.36480
     845.00     242.21990
     855.00     236.02670
     865.00     242.15730
     895.00     238.46650
     905.00     230.20900
     915.00     237.40300
     925.00     615.68390
     935.00    1015.29700
     945.00    1450.06600
     955.00    1742.20600
     965.00    1891.71700
     975.00     570.45530
     985.00    1465.08000
     995.00    1442.55900
    1005.00    1899.85000
    1015.00    1892.34300
    1025.00    1132.27800
    1035.00    1513.87400
    1045.00    2295.83400
    1055.00    2193.86600
    1065.00    1779.74100
    1075.00    2000.56600
    1085.00    1672.76800
    1095.00    2033.72100
    1105.00    1926.12300
    1115.00    1851.05500
    1125.00    1616.46700
    1135.00    1969.28800
    1145.00    1809.76800
    1155.00    1848.55300
    1165.00    1842.92300
    1175.00    1229.86600
    1185.00    1737.20200
    1195.00    1351.22700
    1205.00    1076.60200
    1215.00     815.74050
    1225.00    1286.16700
    1235.00    1694.03800
    1245.00    1785.37100
    1255.00    1704.67200
    1265.00    1543.27600
    1275.00    1839.79500
    1285.00    1885.46100
    1295.00    1542.65000
    1305.00    1525.13400
    1315.00    1809.76800
    1325.00    1717.18400
    1335.00    1552.65900
    1345.00    1749.08800
    1355.00    1685.28000
    1365.00    1521.38100
    1375.00    1552.03400
    1385.00    1541.39900
    1395.00    1242.37800
    1405.00    1253.63800
    1415.00    1402.52300
    1425.00    1394.39100
    1435.00    1403.77400
    1442.00    1451.31800
    1447.00    1460.07500
    1455.00    1406.90200
    1465.00    1300.55600
    1475.00    1296.80200
    1485.00    1306.81100
    1495.00    1306.18600
    1505.00    1228.61500
    1512.00    1102.87600
    1517.00    1162.30500
    1525.00    1129.77600
    1535.00     969.63020
    1545.00     981.51600
    1555.00     940.85400
    1565.00     991.52500
    1575.00    1052.20500
    1585.00    1087.23700
    1595.00    1095.99500
    1605.00    1066.59300
    1615.00    1055.33300
    1625.00    1008.41500
    1635.00    1060.96300
    1645.00    1066.59300
    1655.00    1001.53400
    1665.00    1062.84000
    1672.00     956.49320
    1677.00    1076.60200
    1685.00    1094.11800
    1695.00    1027.18200
    1705.00     986.52040
    1715.00     930.21940
    1725.00     915.20570
    1735.00     965.25120
    1745.00     940.22850
    1755.00     980.89040
    1765.00     912.07790
    1775.00     911.45240
    1785.00     925.21490
    1800.00     964.00000
    1900.00     924.00000
    2000.00     855.00000
    2100.00     780.00000
    2200.00     718.00000
    2300.00     672.00000
    2400.00     632.00000
    2500.00     600.00000
    2600.00     579.00000
    2700.00     570.00000
    2800.00     571.00000
    2900.00     579.00000
    2940.00     583.00000
    2980.00     588.00000
    3100.00     603.00000
    3140.00     608.00000
    3180.00     612.00000
    3220.00     615.00000
    3260.00     617.00000
    3300.00     620.00000
    3340.00     625.00000
    3460.00     643.00000
    3500.00     646.00000
    3540.00     656.00000
    3580.00     642.00000
    3620.00     622.00000
    3660.00     638.00000
    3700.00     805.00000
    3740.00     884.00000
    3780.00     771.00000
    3820.00     776.00000
    3860.00     839.00000
    3900.00     851.00000
    3940.00     831.00000
    3980.00     878.00000
    4020.00     968.00000
    4060.00     967.00000
    4100.00     914.00000
    4140.00     935.00000
    4180.00     975.00000
    4220.00     976.00000
    4260.00     953.00000
    4300.00     925.00000
    4340.00     935.00000
    4380.00     962.00000
    4420.00     976.00000
    4460.00     997.00000
    4500.00    1005.00000
    4540.00     999.00000
    4580.00    1006.00000
    4620.00    1008.00000
    4660.00    1004.00000
    4700.00     994.00000
    4740.00     986.00000
    4780.00     981.00000
    4820.00     987.00000
    4860.00    1015.00000
    4900.00     982.00000
    4940.00     980.00000
    4980.00    1095.00000
    5020.00    1074.00000
    5060.00     940.00000
    5100.00     908.00000
    5140.00     900.00000
    5180.00     886.00000
    5220.00     886.00000
    5260.00     884.00000
    5300.00     886.00000
    5340.00     860.00000
    5380.00     856.00000
    5420.00     895.00000
    5460.00     912.00000
    5500.00     885.00000
    5540.00     856.00000
    5580.00     852.00000
    5620.00     847.00000
    5700.00     849.00000
    5740.00     846.00000
    5820.00     838.00000
    5860.00     833.00000
    5900.00     827.00000
    5940.00     822.00000
    5980.00     817.00000
    6020.00     811.00000
    6060.00     806.00000
    6100.00     800.00000
    6140.00     795.00000
    6220.00     785.00000
    6260.00     781.00000
    6420.00     761.00000
    6460.00     757.00000
    6500.00     752.00000
    6540.00     747.00000
    6580.00     743.00000
    6620.00     738.00000
    6660.00     733.00000
    6700.00     729.00000
    6740.00     724.00000
    6780.00     719.00000
    6820.00     715.00000
    6860.00     710.00000
    6940.00     702.00000
    7060.00     690.00000
    7100.00     685.00000
    7140.00     681.00000
    7340.00     661.00000
    7380.00     657.00000
    7420.00     654.00000
    7460.00     650.00000
    7500.00     647.00000
    7540.00     643.00000
    7620.00     635.00000
    7660.00     632.00000
    7700.00     628.00000
    7740.00     625.00000
    7780.00     621.00000
    7820.00     618.00000
    7860.00     614.00000
    7900.00     611.00000
    7940.00     607.00000
    8000.00     602.00000
    8200.00     586.00000
    8300.00     577.00000
    8400.00     569.00000
    8700.00     545.00000
    8800.00     537.00000
    8900.00     530.00000
    9000.00     522.00000
    9100.00     515.00000
    9200.00     507.00000
    9500.00     486.00000
    9600.00     479.00000
    9800.00     467.00000
    9900.00     461.00000
   10000.00     461.00000
   10075.00     448.59900
   10125.00     456.22160
   10175.00     450.64690
   10225.00     450.98820
   10275.00     450.98820
   10325.00     444.04820
   10375.00     440.29370
   10425.00     440.63500
   10475.00     434.26390
   10525.00     431.30580
   10575.00     423.79690
   10625.00     420.04240
   10675.00     413.67130
   10725.00     414.80900
   10775.00     410.82700
   10825.00     404.11450
   10875.00     401.15650
   10925.00     395.35420
   10975.00     391.82720
   11025.00     391.03090
   11075.00     386.13870
   11125.00     384.09080
   11175.00     380.56390
   11225.00     379.76750
   11275.00     374.30650
   11325.00     373.05510
   11375.00     370.43830
   11425.00     366.22880
   11475.00     369.41440
   11525.00     367.48030
   11625.00     357.12710
   11675.00     356.10310
   11725.00     357.35460
   11775.00     349.95950
   11825.00     346.43260
   11875.00     340.74410
   11925.00     345.29490
   11975.00     333.91780
   12025.00     339.15130
   12075.00     335.16930
   12125.00     334.71420
   12175.00     334.94180
   12275.00     329.13950
   12325.00     326.52270
   12375.00     325.15750
   12425.00     321.17550
   12475.00     319.69640
   12525.00     316.39710
   12575.00     314.69050
   12625.00     312.64270
   12675.00     309.45710
   12725.00     309.00200
   12775.00     307.97810
   12825.00     295.23570
   12875.00     301.83440
   12925.00     298.42130
   12975.00     300.81050
   13025.00     296.48720
   13075.00     297.05600
   13125.00     291.25370
   13175.00     289.77470
   13225.00     289.43340
   13275.00     284.31370
   13325.00     284.99630
   13375.00     281.69700
   13425.00     282.15200
   13475.00     279.42150
   13525.00     277.71500
   13575.00     273.05040
   13625.00     271.91260
   13675.00     272.70900
   13725.00     273.16410
   13775.00     272.14020
   13825.00     272.02640
   13875.00     269.06840
   13925.00     257.91880
   13975.00     256.55360
   14025.00     253.14040
   14075.00     254.73320
   14125.00     251.54760
   14175.00     253.36800
   14225.00     249.95480
   14275.00     246.54170
   14325.00     250.75120
   14375.00     251.43390
   14425.00     245.17650
   14475.00     249.72730
   14525.00     246.76930
   14570.00     248.13450
   14620.00     242.55970
   14675.00     241.42200
   14725.00     238.57770
   14775.00     239.94300
   14825.00     240.51190
   14875.00     238.46400
   14925.00     243.46990
   14975.00     240.96690
   15025.00     238.69150
   15075.00     238.12270
   15125.00     241.64960
   15175.00     242.21840
   15225.00     241.53580
   15275.00     243.01480
   15325.00     241.53580
   15375.00     241.42200
   15425.00     239.71550
   15475.00     240.05680
   15525.00     237.66760
   15575.00     229.36230
   15625.00     231.52390
   15675.00     230.27250
   15725.00     235.39220
   15775.00     220.71570
   15825.00     220.14690
   15875.00     219.12290
   15925.00     226.74560
   15975.00     221.62590
   16050.00     219.91930
   16150.00     223.10490
   16250.00     216.05110
   16350.00     223.67370
   16450.00     211.27270
   16550.00     219.00910
   16650.00     211.61400
   16750.00     212.41040
   16850.00     206.49430
   16950.00     208.54220
   17050.00     204.21890
   17150.00     201.60220
   17250.00     197.96150
   17350.00     191.13530
   17450.00     190.68020
   17550.00     186.92570
   17650.00     184.08150
   17750.00     179.53060
   17850.00     177.36900
   17950.00     173.61450
   18050.00     169.17740
   18150.00     166.10560
   18250.00     164.05780
   18350.00     161.55480
   18450.00     158.59670
   18550.00     157.11770
   18650.00     153.13570
   18750.00     149.60880
   18850.00     148.92620
   18950.00     143.57900
   19050.00     144.83050
   19150.00     141.75860
   19250.00     139.82450
   19350.00     135.84250
   19450.00     132.31560
   19550.00     132.08810
   19650.00     129.58510
   19750.00     126.28580
   19950.00     123.32770
   20050.00     122.64510
   20150.00     121.05230
   20250.00     117.98050
   20350.00     116.38770
   20450.00     116.27390
   20550.00     114.33980
   20650.00     112.46260
   20750.00     111.26800
   20850.00     109.61830
   20950.00     107.71840
   21050.00     107.27470
   21150.00     105.43160
   21250.00     103.89570
   21350.00     103.16750
   21450.00     101.65440
   21550.00     100.10710
   21650.00      97.84304
   21750.00      96.79635
   21950.00      94.69158
   22050.00      92.43892
