#  E SED of Coleman, Wu, and Weedman (1980)
#  Extended below 1400 A and beyond 10000 A by
#  Bolzonella, Miralles, and Pello (2000) using evolutionary models
#  of Bruzual and Charlot (1993)
#
#  Obtained from ZPHOT code at
#  'http://webast.ast.obs-mip.fr/hyperz/zphot_src_1.1.tar.gz'
#
#  Truncated to wavelengths less than 22050 Angstroms, and thinned by
#  galsim.utilities.thin_tabulated_values to a relative error of 1.e-5
#  with fast_search=False.  See devel/modules/getSEDs.py for details.
#
#  Angstroms     Flux/A
#
      91.00       0.32113
     118.00       3.01383
     140.00       8.88762
     155.00      14.93271
     166.00      20.20256
     227.00      52.90179
     246.00      61.67037
     274.00      74.93937
     290.00      80.28181
     296.00      80.94962
     308.00      82.72075
     338.00      85.27583
     348.00      85.39198
     366.00      91.28608
     375.00      90.90862
     385.00      87.97609
     395.00      91.48933
     405.00      93.72502
     422.00      90.24082
     430.00      88.73100
     441.00      89.63109
     451.00      88.35355
     470.00      83.85311
     480.00      83.88215
     490.00      80.28181
     500.00      81.67549
     506.00      78.19128
     512.00      83.35952
     530.00      77.98804
     540.00      72.99402
     550.00      70.70026
     560.00      72.76174
     570.00      73.13919
     590.00      69.68403
     610.00      62.77370
     620.00      64.77711
     630.00      61.90265
     640.00      62.30914
     650.00      60.07344
     658.00      57.57643
     675.00      57.63449
     685.00      53.94705
     695.00      54.67293
     705.00      50.43382
     716.00      52.17591
     735.00      49.99829
     745.00      48.22716
     765.00      44.10418
     775.00      44.59778
     785.00      42.10077
     795.00      42.15884
     815.00      40.64902
     825.00      39.80700
     835.00      36.38087
     845.00      37.71648
     855.00      36.55508
     865.00      36.14859
     885.00      34.49360
     915.00      32.57728
     935.00      54.61486
     945.00      64.22545
     955.00      69.94534
     965.00      71.94876
     975.00      41.17165
     985.00      58.56362
     995.00      56.76345
    1005.00      65.27071
    1015.00      66.28693
    1025.00      52.66951
    1035.00      58.76686
    1045.00      72.70367
    1055.00      69.68403
    1065.00      60.56704
    1075.00      64.31255
    1085.00      56.87959
    1095.00      64.25448
    1115.00      58.97011
    1125.00      52.61144
    1135.00      59.92826
    1145.00      57.05379
    1155.00      56.56021
    1165.00      55.19556
    1175.00      40.79419
    1185.00      52.35013
    1205.00      39.60376
    1215.00      35.48079
    1225.00      45.14944
    1235.00      50.54996
    1245.00      50.95644
    1255.00      49.30145
    1265.00      47.55935
    1275.00      50.95644
    1285.00      50.95644
    1295.00      44.01708
    1305.00      44.16225
    1315.00      48.92400
    1325.00      46.60119
    1335.00      42.94278
    1345.00      46.51409
    1355.00      45.12041
    1365.00      41.81042
    1375.00      41.49103
    1385.00      40.93937
    1395.00      32.43211
    1405.00      31.76430
    1415.00      37.83262
    1425.00      36.90350
    1442.00      37.94876
    1465.00      34.52263
    1475.00      34.58070
    1485.00      34.60973
    1500.00      34.00000
    1700.00      32.00000
    1800.00      32.00000
    1900.00      34.00000
    2000.00      39.00000
    2100.00      43.00000
    2200.00      45.00000
    2300.00      40.00000
    2400.00      34.00000
    2500.00      36.00000
    2600.00      46.00000
    2800.00     106.00000
    2900.00     149.00000
    2940.00     165.00000
    2980.00     184.00000
    3020.00     193.00000
    3060.00     190.00000
    3100.00     203.00000
    3140.00     245.00000
    3180.00     293.00000
    3220.00     309.00000
    3260.00     302.00000
    3300.00     310.00000
    3340.00     311.00000
    3380.00     310.00000
    3420.00     320.00000
    3460.00     328.00000
    3500.00     343.00000
    3540.00     331.00000
    3580.00     321.00000
    3620.00     362.00000
    3660.00     411.00000
    3700.00     423.00000
    3740.00     399.00000
    3780.00     362.00000
    3820.00     318.00000
    3860.00     322.00000
    3900.00     358.00000
    3940.00     410.00000
    3980.00     551.00000
    4020.00     684.00000
    4060.00     733.00000
    4100.00     722.00000
    4140.00     687.00000
    4180.00     696.00000
    4220.00     733.00000
    4260.00     735.00000
    4300.00     764.00000
    4340.00     840.00000
    4380.00     881.00000
    4420.00     927.00000
    4460.00     994.00000
    4500.00    1036.00000
    4540.00    1066.00000
    4580.00    1106.00000
    4620.00    1124.00000
    4660.00    1112.00000
    4700.00    1124.00000
    4740.00    1174.00000
    4780.00    1209.00000
    4820.00    1201.00000
    4860.00    1167.00000
    4900.00    1168.00000
    4940.00    1188.00000
    4980.00    1150.00000
    5020.00    1116.00000
    5060.00    1121.00000
    5100.00    1113.00000
    5140.00    1061.00000
    5180.00    1043.00000
    5220.00    1112.00000
    5260.00    1177.00000
    5300.00    1220.00000
    5340.00    1256.00000
    5380.00    1236.00000
    5420.00    1205.00000
    5460.00    1218.00000
    5500.00    1229.00000
    5540.00    1248.00000
    5580.00    1256.00000
    5620.00    1253.00000
    5660.00    1260.00000
    5700.00    1258.00000
    5740.00    1257.00000
    5780.00    1242.00000
    5820.00    1226.00000
    5860.00    1206.00000
    5900.00    1212.00000
    5940.00    1248.00000
    5980.00    1286.00000
    6020.00    1313.00000
    6060.00    1325.00000
    6100.00    1324.00000
    6140.00    1312.00000
    6180.00    1291.00000
    6220.00    1267.00000
    6260.00    1241.00000
    6300.00    1220.00000
    6340.00    1214.00000
    6380.00    1220.00000
    6420.00    1232.00000
    6460.00    1248.00000
    6500.00    1263.00000
    6540.00    1277.00000
    6580.00    1287.00000
    6620.00    1284.00000
    6660.00    1265.00000
    6700.00    1252.00000
    6740.00    1249.00000
    6780.00    1248.00000
    6820.00    1251.00000
    6860.00    1252.00000
    6900.00    1252.00000
    6940.00    1250.00000
    6980.00    1252.00000
    7020.00    1246.00000
    7060.00    1238.00000
    7100.00    1216.00000
    7140.00    1168.00000
    7180.00    1128.00000
    7220.00    1134.00000
    7260.00    1174.00000
    7300.00    1215.00000
    7340.00    1238.00000
    7380.00    1253.00000
    7420.00    1263.00000
    7460.00    1268.00000
    7500.00    1267.00000
    7540.00    1257.00000
    7580.00    1238.00000
    7620.00    1214.00000
    7660.00    1195.00000
    7700.00    1182.00000
    7740.00    1165.00000
    7780.00    1146.00000
    7820.00    1126.00000
    7860.00    1108.00000
    7900.00    1091.00000
    7940.00    1082.00000
    8000.00    1091.00000
    8100.00    1137.00000
    8200.00    1147.00000
    8300.00    1163.00000
    8400.00    1121.00000
    8500.00    1054.00000
    8600.00    1097.00000
    8700.00    1141.00000
    8800.00    1161.00000
    8900.00    1133.00000
    9000.00    1128.00000
    9100.00    1163.00000
    9200.00    1141.00000
    9300.00    1101.00000
    9400.00    1049.00000
    9500.00    1072.00000
    9600.00    1071.00000
    9700.00    1059.00000
    9800.00    1063.00000
    9900.00    1084.00000
   10000.00    1144.00000
   10025.00    1088.54400
   10075.00    1075.26100
   10125.00    1089.59300
   10175.00    1077.35800
   10225.00    1081.90300
   10275.00    1085.74800
   10325.00    1072.81400
   10375.00    1065.12400
   10425.00    1068.96900
   10475.00    1052.19000
   10525.00    1040.30400
   10575.00    1017.58300
   10625.00    1006.39700
   10675.00     999.05570
   10725.00    1006.04700
   10775.00     998.00700
   10825.00     982.62620
   10875.00     977.03310
   10925.00     975.28530
   10975.00     959.20540
   11025.00     949.41750
   11075.00     931.58970
   11125.00     930.54110
   11175.00     923.54980
   11225.00     923.54980
   11275.00     913.76200
   11325.00     912.36370
   11375.00     905.37240
   11425.00     896.28380
   11475.00     905.37240
   11525.00     902.57590
   11575.00     891.38980
   11625.00     878.45600
   11675.00     877.40720
   11725.00     878.80550
   11775.00     859.92900
   11825.00     849.44210
   11875.00     834.76040
   11925.00     846.29600
   11975.00     819.03000
   12025.00     834.76040
   12075.00     827.06990
   12125.00     827.41950
   12175.00     828.46820
   12225.00     822.52560
   12275.00     816.23340
   12325.00     810.29080
   12375.00     807.49430
   12425.00     795.60910
   12475.00     792.46300
   12525.00     785.12220
   12575.00     781.62650
   12625.00     776.73260
   12675.00     769.74130
   12725.00     769.74130
   12775.00     769.39170
   12825.00     745.97090
   12875.00     755.40920
   12925.00     746.67000
   12975.00     753.31180
   13025.00     743.52400
   13075.00     744.57270
   13125.00     728.84230
   13175.00     725.69620
   13225.00     724.64750
   13275.00     711.36410
   13325.00     712.41270
   13375.00     704.02320
   13425.00     704.72230
   13475.00     697.38140
   13525.00     692.83710
   13575.00     680.60240
   13625.00     677.80580
   13675.00     681.30150
   13725.00     684.09800
   13775.00     682.00060
   13825.00     682.35020
   13875.00     675.00930
   13925.00     635.50850
   13975.00     630.96420
   14025.00     623.97280
   14075.00     629.21640
   14125.00     622.92420
   14175.00     628.51730
   14225.00     621.52590
   14275.00     613.13640
   14325.00     625.72070
   14375.00     628.51730
   14425.00     615.23380
   14475.00     627.11900
   14525.00     621.52590
   14570.00     625.37120
   14620.00     607.54330
   14675.00     604.74680
   14725.00     599.15380
   14775.00     604.39730
   14825.00     607.54330
   14875.00     602.99900
   14925.00     618.03030
   14975.00     613.48600
   15025.00     606.49460
   15075.00     608.59200
   15125.00     619.77810
   15175.00     622.57460
   15225.00     622.57460
   15275.00     627.81810
   15325.00     625.72070
   15375.00     623.97280
   15425.00     619.77810
   15475.00     621.52590
   15525.00     616.98160
   15575.00     597.75550
   15625.00     600.55210
   15675.00     600.55210
   15725.00     615.93290
   15775.00     576.08250
   15825.00     573.63560
   15875.00     576.43210
   15925.00     596.35720
   15975.00     581.67560
   16050.00     578.17990
   16150.00     591.81290
   16250.00     569.44080
   16350.00     594.25990
   16450.00     563.84770
   16550.00     584.82170
   16650.00     566.99380
   16750.00     570.48950
   16850.00     559.30340
   16950.00     562.09990
   17050.00     552.66170
   17150.00     544.27220
   17250.00     535.53300
   17350.00     518.75400
   17450.00     513.16090
   17550.00     502.32440
   17650.00     491.83750
   17750.00     478.20440
   17850.00     469.81490
   17950.00     456.88100
   18050.00     443.94710
   18150.00     436.60620
   18250.00     429.96450
   18350.00     422.97320
   18450.00     414.23410
   18550.00     408.99060
   18650.00     397.45500
   18750.00     389.41500
   18850.00     386.96810
   18950.00     374.03410
   19050.00     377.87940
   19150.00     370.88810
   19250.00     366.34380
   19350.00     357.25510
   19450.00     349.35490
   19550.00     347.01280
   19650.00     339.84670
   19750.00     330.33860
   19850.00     326.49340
   19950.00     322.71810
   20050.00     321.14500
   20150.00     317.12500
   20250.00     309.78420
   20350.00     306.67310
   20450.00     306.63810
   20550.00     302.47830
   20650.00     298.38840
   20750.00     296.01130
   20850.00     292.44580
   20950.00     288.07620
   21050.00     287.44700
   21150.00     283.21730
   21250.00     279.75660
   21350.00     278.18360
   21450.00     274.72280
   21550.00     271.08740
   21650.00     266.26340
   21750.00     262.76770
   21850.00     260.04110
   21950.00     257.24460
   22050.00     251.23210
