#  Sbc SED of Coleman, Wu, and Weedman (1980)
#  Extended below 1400 A and beyond 10000 A by
#  Bolzonella, Miralles, and Pello (2000) using evolutionary models
#  of Bruzual and Charlot (1993)
#
#  Obtained from ZPHOT code at
#  'http://webast.ast.obs-mip.fr/hyperz/zphot_src_1.1.tar.gz'
#
#  Truncated to wavelengths less than 22050 Angstroms, and thinned by
#  galsim.utilities.thin_tabulated_values to a relative error of 1.e-5
#  with fast_search=False.  See devel/modules/getSEDs.py for details.
#
#  Angstroms     Flux/A
#
      91.00       0.77622
     102.00       1.69377
     121.00       4.29178
     173.00      14.04077
     198.00      17.73688
     257.00      23.25330
     264.00      27.43038
     269.00      28.60322
     279.00      26.67932
     284.00      31.04140
     290.00      33.26868
     301.00      30.54562
     308.00      33.04299
     318.00      32.60641
     328.00      34.18623
     348.00      32.44732
     357.00      42.28881
     366.00      62.48977
     375.00      61.26883
     385.00      50.16941
     395.00      71.99828
     405.00      87.98145
     414.00      86.79751
     422.00      78.65794
     430.00      74.95813
     441.00      85.83556
     451.00      86.64952
     460.00      75.88308
     470.00      76.47505
     480.00      84.87361
     490.00      71.07333
     500.00      86.72352
     506.00      73.07122
     512.00     123.20360
     530.00     105.77750
     540.00      87.01950
     550.00      84.94761
     560.00     109.10740
     570.00     120.57680
     580.00     115.58200
     590.00     116.43300
     600.00      95.67706
     610.00      94.38213
     620.00     116.95100
     630.00     109.25530
     640.00     117.54290
     650.00     111.95620
     658.00     101.59670
     665.00     113.32510
     675.00     117.76490
     685.00      98.59990
     695.00     114.36110
     705.00      90.01635
     716.00     115.50800
     726.00     114.84210
     735.00     113.99110
     755.00     107.18350
     765.00      95.82505
     775.00     105.18560
     785.00      96.49101
     795.00     102.07770
     815.00     101.81870
     825.00     102.63270
     835.00      79.39790
     845.00      98.00793
     855.00      95.49207
     865.00      97.89694
     895.00      96.30602
     905.00      92.97620
     915.00      95.89905
     925.00     246.44430
     935.00     405.49900
     945.00     578.65010
     955.00     694.82410
     965.00     754.39100
     975.00     228.46320
     985.00     584.56980
     995.00     575.69020
    1005.00     757.72080
    1015.00     754.76100
    1025.00     452.11660
    1035.00     603.80880
    1045.00     915.33260
    1055.00     875.00480
    1065.00     709.99330
    1075.00     797.67880
    1085.00     667.44550
    1095.00     810.99800
    1105.00     768.45030
    1115.00     738.48190
    1125.00     645.24660
    1135.00     785.83940
    1145.00     722.20270
    1155.00     737.74190
    1165.00     735.52200
    1175.00     491.33460
    1185.00     693.34420
    1195.00     538.69210
    1205.00     429.54780
    1215.00     325.58320
    1225.00     513.16350
    1235.00     675.95500
    1245.00     712.58310
    1255.00     680.39480
    1265.00     616.01820
    1275.00     734.78200
    1285.00     753.28110
    1295.00     616.38810
    1305.00     608.98850
    1315.00     722.94260
    1325.00     685.94450
    1335.00     620.45790
    1345.00     699.26390
    1355.00     673.73520
    1365.00     607.87860
    1375.00     620.45790
    1385.00     616.38810
    1395.00     497.25430
    1405.00     501.69410
    1415.00     560.89110
    1425.00     557.56120
    1435.00     561.26100
    1442.00     580.50000
    1447.00     584.19980
    1455.00     562.74090
    1465.00     520.19310
    1475.00     518.71320
    1485.00     522.78300
    1495.00     522.78300
    1505.00     491.70460
    1512.00     441.38720
    1517.00     465.43590
    1525.00     452.11660
    1535.00     388.10990
    1545.00     393.28970
    1555.00     377.01050
    1565.00     396.98950
    1575.00     421.40820
    1585.00     435.46750
    1595.00     439.16730
    1605.00     427.32790
    1615.00     422.51820
    1625.00     403.64910
    1635.00     424.73800
    1645.00     427.32790
    1655.00     401.05930
    1665.00     425.84800
    1672.00     382.56020
    1677.00     431.02770
    1685.00     438.42730
    1695.00     411.41870
    1705.00     395.13960
    1715.00     372.57070
    1725.00     366.61400
    1735.00     387.00000
    1745.00     376.64050
    1755.00     393.28970
    1765.00     365.43010
    1775.00     365.61510
    1785.00     371.09080
    1800.00     387.00000
    1900.00     390.00000
    2000.00     379.00000
    2100.00     364.00000
    2200.00     353.00000
    2300.00     349.00000
    2400.00     346.00000
    2500.00     346.00000
    2600.00     347.00000
    2700.00     347.00000
    2800.00     348.00000
    2900.00     353.00000
    2940.00     357.00000
    3020.00     367.00000
    3060.00     374.00000
    3100.00     382.00000
    3140.00     392.00000
    3180.00     403.00000
    3220.00     417.00000
    3260.00     432.00000
    3300.00     449.00000
    3340.00     469.00000
    3380.00     490.00000
    3420.00     513.00000
    3460.00     535.00000
    3500.00     558.00000
    3540.00     597.00000
    3580.00     577.00000
    3620.00     563.00000
    3660.00     599.00000
    3700.00     676.00000
    3740.00     706.00000
    3780.00     682.00000
    3820.00     708.00000
    3860.00     764.00000
    3900.00     778.00000
    3940.00     760.00000
    3980.00     813.00000
    4020.00     920.00000
    4060.00     924.00000
    4100.00     880.00000
    4140.00     903.00000
    4180.00     938.00000
    4220.00     947.00000
    4260.00     927.00000
    4300.00     896.00000
    4340.00     896.00000
    4380.00     931.00000
    4420.00     969.00000
    4460.00     997.00000
    4500.00    1017.00000
    4540.00    1016.00000
    4580.00    1005.00000
    4620.00    1013.00000
    4660.00    1008.00000
    4700.00     994.00000
    4740.00    1013.00000
    4780.00    1006.00000
    4820.00     984.00000
    4860.00     980.00000
    4900.00     967.00000
    4940.00     966.00000
    4980.00     984.00000
    5020.00     977.00000
    5060.00     942.00000
    5100.00     945.00000
    5140.00     933.00000
    5180.00     917.00000
    5220.00     928.00000
    5260.00     920.00000
    5300.00     905.00000
    5340.00     886.00000
    5380.00     990.00000
    5420.00     941.00000
    5460.00     961.00000
    5500.00     945.00000
    5540.00     961.00000
    5580.00     956.00000
    5620.00     945.00000
    5660.00     936.00000
    5700.00     926.00000
    5780.00     910.00000
    5820.00     903.00000
    5900.00     891.00000
    5940.00     886.00000
    6020.00     880.00000
    6060.00     878.00000
    6100.00     876.00000
    6140.00     874.00000
    6180.00     872.00000
    6220.00     870.00000
    6260.00     868.00000
    6300.00     865.00000
    6340.00     864.00000
    6460.00     858.00000
    6500.00     855.00000
    6540.00     854.00000
    6740.00     844.00000
    6780.00     842.00000
    6820.00     841.00000
    6900.00     837.00000
    6980.00     833.00000
    7020.00     832.00000
    7060.00     830.00000
    7100.00     828.00000
    7140.00     828.00000
    7180.00     826.00000
    7220.00     825.00000
    7260.00     823.00000
    7300.00     821.00000
    7340.00     821.00000
    7380.00     819.00000
    7420.00     818.00000
    7460.00     816.00000
    7500.00     814.00000
    7540.00     814.00000
    7580.00     812.00000
    7620.00     811.00000
    7660.00     809.00000
    7700.00     807.00000
    7740.00     807.00000
    7780.00     805.00000
    7820.00     804.00000
    7860.00     802.00000
    7900.00     801.00000
    7940.00     800.00000
    8000.00     797.00000
    8100.00     794.00000
    8200.00     791.00000
    8300.00     789.00000
    8500.00     783.00000
    8600.00     781.00000
    8700.00     778.00000
    8800.00     776.00000
    8900.00     774.00000
    9000.00     771.00000
    9100.00     769.00000
    9500.00     761.00000
    9600.00     759.00000
    9700.00     758.00000
    9800.00     756.00000
    9900.00     754.00000
   10000.00     753.00000
   10025.00     750.15760
   10075.00     738.48250
   10125.00     749.12300
   10175.00     739.81260
   10225.00     741.14270
   10275.00     741.73380
   10325.00     730.94550
   10375.00     724.88630
   10425.00     726.36410
   10475.00     715.72360
   10525.00     710.40340
   10575.00     697.39830
   10625.00     691.04350
   10675.00     682.02860
   10725.00     684.39320
   10775.00     678.03840
   10825.00     667.10230
   10875.00     662.81650
   10925.00     656.75730
   10975.00     649.07250
   11025.00     646.11680
   11075.00     637.24970
   11125.00     634.44180
   11175.00     628.82590
   11225.00     627.93920
   11275.00     619.51550
   11325.00     617.74210
   11375.00     613.16070
   11425.00     606.51040
   11475.00     612.12620
   11525.00     609.31830
   11575.00     601.33790
   11625.00     592.47080
   11675.00     590.99290
   11725.00     592.91420
   11775.00     580.79580
   11825.00     574.58880
   11875.00     565.27830
   11925.00     572.81540
   11975.00     553.89890
   12025.00     563.20930
   12075.00     556.85460
   12125.00     556.55900
   12175.00     557.00230
   12225.00     552.42100
   12325.00     543.70170
   12375.00     541.33720
   12425.00     534.53900
   12475.00     532.32220
   12525.00     526.85410
   12575.00     524.34180
   12625.00     521.09050
   12675.00     515.77030
   12725.00     515.32700
   12775.00     514.29240
   12825.00     494.78480
   12875.00     504.09520
   12925.00     498.18380
   12975.00     502.46960
   13025.00     495.37590
   13075.00     496.26260
   13125.00     486.50880
   13175.00     484.14420
   13225.00     483.55310
   13275.00     475.12940
   13325.00     476.16380
   13375.00     470.84360
   13425.00     471.58250
   13475.00     467.00120
   13525.00     464.19320
   13575.00     456.21290
   13625.00     454.43950
   13675.00     455.91730
   13725.00     457.24730
   13775.00     455.47390
   13825.00     455.32610
   13875.00     450.44920
   13925.00     430.20270
   13975.00     427.83810
   14025.00     422.37000
   14075.00     425.32570
   14125.00     420.15330
   14175.00     423.55230
   14225.00     417.93650
   14275.00     412.17290
   14325.00     419.85770
   14375.00     421.18780
   14425.00     410.99060
   14475.00     418.82320
   14525.00     414.09410
   14570.00     416.45860
   14620.00     406.55700
   14675.00     404.78360
   14725.00     400.20230
   14775.00     402.71460
   14825.00     404.04470
   14875.00     400.64560
   14925.00     409.51280
   15025.00     401.38460
   15075.00     401.08900
   15125.00     407.59150
   15175.00     408.77380
   15225.00     407.88710
   15275.00     410.69500
   15325.00     408.47820
   15375.00     408.03490
   15425.00     405.37480
   15475.00     405.96590
   15525.00     402.27120
   15575.00     388.82280
   15625.00     391.92630
   15675.00     390.30070
   15725.00     399.31560
   15775.00     374.04430
   15825.00     373.30540
   15875.00     372.56640
   15925.00     385.12820
   15975.00     376.40890
   16050.00     373.89650
   16150.00     379.95570
   16250.00     367.54170
   16350.00     380.99020
   16450.00     360.74360
   16550.00     373.45310
   16650.00     361.18700
   16750.00     362.66480
   16850.00     353.50210
   16950.00     356.45790
   17050.00     349.21640
   17150.00     344.63500
   17250.00     338.42810
   17350.00     327.19640
   17450.00     325.57080
   17550.00     319.21600
   17650.00     313.89570
   17750.00     305.91530
   17850.00     302.07290
   17950.00     295.12700
   18050.00     287.44220
   18150.00     282.56520
   18250.00     278.72290
   18350.00     274.43710
   18450.00     269.11680
   18550.00     266.45670
   18650.00     259.51080
   18750.00     253.74710
   18850.00     252.41710
   18950.00     243.55000
   19050.00     245.76680
   19150.00     240.74210
   19250.00     237.49080
   19350.00     230.84050
   19450.00     225.22460
   19550.00     224.48570
   19650.00     220.05210
   19750.00     214.43630
   19950.00     209.41160
   20050.00     208.22930
   20150.00     205.56920
   20250.00     200.39670
   20350.00     198.03220
   20450.00     197.73660
   20550.00     194.48530
   20650.00     191.52960
   20750.00     189.60840
   20850.00     186.94830
   20950.00     183.69700
   21050.00     183.10580
   21150.00     180.00230
   21250.00     177.49000
   21350.00     176.30770
   21450.00     173.79540
   21550.00     171.28300
   21650.00     167.58840
   21850.00     163.89380
   21950.00     162.12030
   22050.00     158.27790
